##TITLE=QuickScan
##JCAMP-DX=6.00 $$ Magritek SpinSolve SPA102 1.1.21.1255
##DATA TYPE=NMR FID
##DATA CLASS=NTUPLES
##ORIGIN=SPA102 at Magritek, NZ
##OWNER=Copyright (C) 2014 by Magritek, NZ
##LONGDATE=2014/08/08 11:39:53
##.OBSERVE FREQUENCY=43.0773162844181
##.OBSERVE NUCLEUS=^1H
##.DELAY=( 20.0,  20.0)
##.ACQUISITION MODE=SIMULTANEOUS
##.FIELD= 1.0
##.AVERAGES= 35
##.DIGITISER RES=16
##.PULSE SEQUENCE= PULSE ACQUISITION
p=  10.0
rd= 8446
##SPECTROMETER/DATA SYSTEM=Magritek SpinSolve SPA102 1.1.21.1255
##SAMPLE DESCRIPTION=solvent=D2O  
##DATA PROCESSING=Ordinates are scaled between -32767 and +32767.
##NTUPLES=NMR FID
##VAR_NAME=        TIME,            FID/REAL,            FID/IMAG, PAGE NUMBER
##SYMBOL=             X,                   R,                   I,           N
##VAR_TYPE= INDEPENDENT,           DEPENDENT,           DEPENDENT,        PAGE
##VAR_FORM=        AFFN,                ASDF,                ASDF,        AFFN
##VAR_DIM=        32768,               32768,               32768,           2
##UNITS=        SECONDS,     ARBITRARY UNITS,     ARBITRARY UNITS,            
##FIRST=              0,    1666,49806805294,    339,727581412044,           1
##LAST=     1,638349952,   0,305154222489629,                   0,           2
##MIN=                0,    -772,34533712125,   -706,056764215973,           1
##MAX=      1,638349952,    1666,49806805294,    776,875822466917,           2
##FACTOR=  4.999999E-05,  0,0508590370816048,  0,0237090921496297,           1
##PAGE=N=1
##DATA TABLE=(X++(R..R)), XYDATA   $$ Real data points
0C2767l612o26r0p04m52m87n60o98o19p46p90q24q33q27q34r58r93r00j035r82r35j129j021
23A2112j019j064j002j190r09r85j104j079j010r87j010j036q97r24q93q94r79p79p83r00o62
44g994o46p65o46n49n92n68m65m47m17l40m00m17j86j84j30j88o9j05p8J3L7Q3J27J62J58R0
70a4516L20L55J54L48L14M18M74L69N32L29L81M76M29O28N36M36M38N53N34M60O11N35M70N26
94c890N89M68M96M13M91M03L86M93K74L32M29M22K80L08K39J96K58K24J19J45J42J35J06K8J7
119C503k4l0M7o4j95m5k06k52N2k01k10k95j94k02k74l98j22k68l66k25l97l68j87l82m54j64
145a921k47m52k04l43l19j75l40l82j31j80k26k09k95j91j88j20q5j51j54L9k9j2P8O8o2l9
171f270J71J50J46J38J26J48K19L03K00L99K36J52M20M64K99L52M77K69M47N00L53N13M50M98
195A160L77L83M98M43M08M27N78M49M01N17M11L68M28L23L77L21K87L87K51K43L77K47K63L35
219A0259L3J07J75J15OJ26R4q8Oo0k6j51r2j31j30k03j98l66k56k31k93k69l93m13l24l71m67
246F459m71m91m04n02n38m16l99o03m20o13n38n00n48n78m68m65n61o38m08m77m69n62m54m11
270e475n93k58m63m52l04k75m34m48j82l27k50j37k72j14k26j51j64k2q2j27j16J76J01M6J2
295a0537N8oJ84K05J02K46K33K40L36K59J83L43L15L85L43L51M70K47M83L06L51M77L47M20
319c659N11K79M39M97M07M20L91L32M36N17K31M61L53L76L90K80K59L34M31K99O1J95L30K07
343D777K53K09J98K36M8K7K74Q5L5n4J26O3N6N0p3p7K3M8j46r4m8j66m1k8k38q2j46j54l9p9
373E043k42k26j3k60k47m4k55k23r8k09o2j82j49p6j35j28j90r4j68j16q5j82l3q5r7p4n0k5
401A295r6Q8k66J5J85m4L0m2K3M8lM0Q4N4N2J29J7pJ97k3J17J86J10L7j0K01R3j01R5O3J35L4
433B736J9K5J15M3J10N9j59O7P6j09om7N6J8j86P7j38r4J4j61k6j06j65j52k04j10j89k23o4
462A276k47k29j34j82k04j93k78l51k10k63j84k73j96j26l86l75j06l19j83k44k21k08k11l24
486d371k11j89k20j68k40k25j06j88k17j19j50l3j22k16j24L6k2k63N8O0j26N0K1L3Q4j5M4
513f939J22J05P7LK27J30J59K58O1K71K19P2K87K21J97K12K70K56K29K91J43K79L76K63J87
538b024K54K74L60K03J76L52J84J94K95L62J82Q0L01K49K18K89R8K25O5K24J59K0J05J33J85
563C163Q3M9O7M9P1l5R4N2l4m3k9o6n6n8j26J5j09l7j32k38o0q9p7j53n0k30m6j66j88p3j97
594A351j28k00j63j01j60j71r0k10j75m3pk38j56j18Rn4k01m6j6l8l5k3j00J8O7j27K2n7R9O9
624a022M9P0N8R7K1J80O7R4J78Q9R3J93J26J36K41J60J08R7J31L24N6J94J50J53J40K15J93
651B591J00K37J43J13J28J49J81J24R2J24L4L9J21J07RnJ17nj8Rj1l9kj7j11p7r6m8j55j61
681C673j50o1j05k31j78k51j38j48k97j74j91l04k66k57k09k48l45j81l24j94l97j61k72k71
705a680k52k97k71k41l18k17k60j84k84k40j88j74k10k83j00j23j97p9j02j85r1p6n2j21%O9
731f156o4j7K3L1l0J26N7N0J79J43J58J38L3K62J36J54K06K49J78K48K97K17K32L02J95K56
757b397K92L32K77K82K66L22K75K69L42K32L91K58K54K09L19K29J51L10K23K59J81K47J38K09
781C870P4K11K52O5O7J95J53MJ7R1R0r0M1P7j8j13n3N9j96Qq5r8j60r4j82l08p4q5k42j74j27
812C175j38l11k21k31j28k14l62j36k34k74k10k90k59j04l34k09j66k16l16j07k66j60j29k03
836b043j50k54j43J3j65j49j35o0r4l7j41l9QJ1p1L7N9J6Q5J09MM4R4J77N1J22J69R4K12J08
866b068J83J90J76J05K28J74L19J22J60K89K30K07K66K10R6L02K15K28K09J44J92J02L72J17
890B768N8J57K58K22j6J23K29L8P5R9M0J5KK8J75K0j31N4o1l1j35p5l8j62j01q5j56j50k26
919B994k32j39j54j71k02k94j95k23k54l03k25j73m15j79k91l74k22l01k64l34k12k39l03j43
943b848l34j53l47k67j71j24l69j74j39k67p2k53j87o1j13j32j04j75J9n7o5k7l6M7q0K3pO3
971f410K03P1J5J68k3J53K82J47K25J08J72K19J31K91K98J92K15L67K28L02K49K35K46K42M52
996a222J70L31L11K22L78L42K24K41K95K78TL39K13K72K08L15J52K31J54J94K09J87J97K00
1020D719J06J56K03K1K9J57J9J73J7J35N3j12M0p7k5Pl9rj00j92O3q5o6k51j51qj67j43k04
1049D269k33q6k53j44j06k75j64k41j54j95j91j60k72j14q9l54j45j26k83j22k36k05o4k36
1073a79j82k1k21j78j19j42j23n1j88j64l5j64Q3N3j56j42J28j13l5K7k4m7K9J16j12l8Q3J9
1101a896P8L8R0N2L7J31P4lJ05Q9J6J51RJ03J35K7R7J40P2l1K05Q0O9R4oP2P8N7K2Q3M8J64k3
1134D57M7k4J3K5K8p0k1n2N3q4j22Q9k0l7k8j52p9k1j54r6k7p5j93Ko4q1k40r3o1j45j21j59
1166a505j56K3j99j14m2r0r8j91p3r6j83Oj24j19m5j43%K1j67j88mL4p1k6J1j04M1J02k4p4
1196c598J14k1oJ5J29M5R6O4J32O5J22J45J00J09Q7J36J87N5K40J38J98K52N3J75J41K60J84
1223c83J30L34J66R1K21J63K46K11J65K73J10K16K27J17J59J55K24R2K05K21J52N3J52J63J17
1248C980J91n7Q3K18J09j7J04pN8J9K8M3N5nl9N3l7Lq6k0q7l5L1o7j73q2q6j17j20j06j22j28
1280C584k05j03j08j77j37j82l7j89k31j53j29j27k22j46k12j32j33k27j15j57j92j53j07j60
1304a50j72j21j84j12k2k37k46q6j16n0j32r5j53j09k8j33%r9j72R8j41j24N2j30P4p8rNm0m3
1334b753K0mj6J9Q2j9O7m5m4M8O4J04l9M3L0P7N1m4O3Q7J04L4oMJ72P7MP9M4n4J47L3L4L6J15
1369a386j0TJ71j22L6J49l4N3L7L4K0L0J07L0p6O8rl9K1K5J34r3p4P0M3q5J41K1j04L2k5O6N6
1402g23n7k3L0%O8N6p3j13J80l2m0Q7JJ8K5J0J37l4L6P1j23J55J30qK6J3J35M7k2J50K8M3Q3
1435B81R9J09OO6R3J43P3M8M7P2N2Q6K20N0N3Q3R6J37NJ06J74M2O4N2N6O9O7J19l4J67R5L6Q6
1468B918J9M7M6K0J77k4M9P5l1n3nO6R0L0L4k12K3O2j64J28j7k43J05r6n1m6k10Q4j69j18km9
1500B483j51q5J8j86j31q4p2j59q4j01k35m2o9k12k05j24k48j0j75j19p9j27j72j80p7j53j64
1527i43j56r3j93r8r2j55j40j30r4r9j93p2o4j23n8j09o0l1k37k5O4j82q3J6n2m2o8m8l9o7Q
1558c658J33j02j27P4L1l9J26M2q6P4P7J2M8R3m8R6J52J08N7qO1J18R8J20M5K04R9M7L5J46
1588a972J92JJ03K01lQ2R4P0K02Q0J42Q9J24O6J09J71J47J01K9J00J79P8qJ97%O7J14J57Q0L9
1618A031R5j12J63J34l1J76K7O2n4P2J37m8j7j1J03P9j07J99%j51M3N5Jn8j2M8K1j30RK4P9k6
1650A801q3m4kl5K8L0m0q6K4m1p2l3l1j29J11q2nL5k4r3p6Q3j9j06l5mj9L3o2k4qr6k3M1J5J9
1686I48Pp1NK0l3Jj5kL0ln5O5J36r5l7K1j3J0O7Jl6J1M3r2M6K1P9Pp0j0J34K0pn2K3l6M6Ok2
1725A098l2j3Q6j02j13N0p5j0J6jK8pm8j47j1k0Ql9j45n1J0j20j13N0n3r3m2p3j14q3j49j0q0
1758c98j01m4o3j69p0j22q0p9j30r0k3j65l5j08j62l2n3j87o5qj01o4m0j45j11pj28L7Pk04j1
1789b951j07j1j14J19K1j55j44N5J9m4L4mJ7N8j24K0K8J82m4n5J11N6N8J49k7M5M2P2O1K61K1
1820b351J21J75j5J82K10l9K14J41oJ97J82J32J49TJ88M5J51J06J70J10K06K39L4J96O4R3K27
1847A270J83R2Q6J95J17N9J04R5K01P3J13J98oJ70J62oL6J15L3k9J37R5kRN3m5j1J58K9k10P1
1878C545N2K1j4q7k6j04m9r5m8Qq1j16q9j04Qj33j55j6l1j80j79l5j04j09n2j84j51j23j29
1907A240j48n4j57q6j37j78l3k20j31K0k15m7l2j41j88j5j1k32Oq2j01r7j8p5j24%r1J5j17j
1937a450j4j29K8j0j15J59j04OM9r0N1J3M6NO0J3o7J42j6nJ3J36K7J9P9L4N0Q5j8R6P4%R8k9
1971g64N2R7M8O8J4L0M9J4O7L0N6L5M6N8r2K8J11o4L2J09j42k9Q7L1j29L5N2pq8m6k8O0j35k3
2005c38J5j45l6n9j3n2k8l1p0j19jKj66q1M4l3j26k3j03m2K0j02J8j94o1j2kK7pj15q2J6M1n8
2039a916L5M2j5j4O7k9o5N2J23J4J7M9M1MJ20L3QJ44J48N7p1J26J97R1J13J33LJ17K15R2O7
2070bJ75J07R6J78J25TM3K46J96O5J26J85J14O7R5J50J79J25J08Q8J46J43M2J91J21K8R8L0
2098C390J25K9P6J49N3J0k0J35L8r4L0qMN1lj9K1j07j1n7j57J30o6j80n4j06r4m2j01q6m9j87
2130B800r0j51j61j70k29L3j63j99j43j53k00j10j27k10m7k46j63j88j20j97k01j81r0k04l3
2155i43j37k35n4k09j23j28j13j18j61q2j45k12n9J6j80m7j06q0j04m6L7j51p3m0rj6j36J5J6
2184c623l5N1QJ6m8oO5O3p6M4J52NP0jP3L1K1J07Q7Q9NK6O3O8K05k7J10J04N9O5J01J07J20Q2
2218a819N0N2O0N5R1L1J35K18K9n8J84Q4L8L5Q8Q3l8R1J17Q3P5L3jQ9L0O2N6m9J10O3Rj5J09
2251A80k1J23N9K8N6j5J1J05Q6mM6M0PJ0N1P0k8R7Q1o5O9J7L6J02M4OK7L7N4R1Ok8J51K0N4J4
2287A617R9J11j7O7R0n6J05N8Q7J26j15P8J03O8j%J49J8K8L6Q3K3J4Q6p6k1Q8RM0N7o5l0N9k2
2321B896M2o6M0Pm5n0l1L0n8o8j0nj70J0J2r6q5r5n0o9o3j86j02K9j56j66lj46j30L7j95j76
2353H82l5m1q3k51j8o9k31q3j13q4q3j88r3o4j62q4j18l32m3Q4j06j12j20j38j6j70j4r2j39N
2383b111j25k2o8k8j06q1M3j31m7L3k3K9o4o7J00n1j7k1L3O8p9lK4k4R9N8NP5l6QL0P2J01N7
2417b269j3R5R2J6K7Q2LJ25k5M4J40K1P0J52l5O7J33k7P8J3J9J54NJ46L9L0K6O9J07n8M0J10
2449e24l6N0J59j33J18Q3k2oM0P2K8m5N5N0J1m5j0Q9m6O5R8n3J1O8%J1NN1Q5P1n9TQ3Q6Q3K0
2485D54M6RJ9rR4j7rJ40P0K8j3J26L1J11R1j6O6N3P8P4O7L1Q6R3R9N4Q2R0Q2M2L5Q8J13TnK4
2521B520J16k2L8P1J81n2J7R3M4j3OP9PM5p8P9r8J5LJ3p0ro2k4n6j18r2mp3l5j69p7n3j70j10
2556A942j73ol5k98j21p2k39j75p0j99j32k57j14j11k56j62j14j99k34j95j96k53l0k09j92
2581b100k05k51L4k32k64j71j72j18j68j38j67p7j14p4j14j78m9j26r4rj21j23J2m0j6o3n7N6
2609e139NQ0j9m9M5J19J0J78M1L2R4J21R5K50K0J08J94J13J68J84K04R7K19K21J68K38J68K39
2637a796K09J83J75K38K46J96K08J70L19J46K07L28N8K26K58J40K04K43J62J16K27J18J79J64
2661B924Q1J27J60J67J12K9J84P4N6Q9N8M7M5MN1R6o2k8l6M6Jq1r0k6M2j84o4qj30j37q9q6r7
2694C275j12r9j58j07j83o8p6j83n8k22n6k19j20l6k37r9j76j65p0o2j87j44o2j29j16p6j24
2721f9o5j54n1j26j1m6j71Ml2k6Ro3J2j6m5M7L9P1j05rR4M1PO2O9j1R4J46J4Q3O3N4R9J06O1
2756A75J05R4O7R1Q1J19J10P3O7K1J13j7R4J31KR2O9M5R7l2Q6p3R1K3o3L2L4o3Rk3j03l8l9
2789A470j02q4j05oj7j28p6j90j27n7j70j08p8k09q0j90k01m8k01j68j44k70j29o1j96n8k78
2816b011k57j08j20j88k17j16j38j60j42r1j08j47k22j58j03k1j08j79j27j6jj0n6r0k7roQj6
2845d944J42jK9P9J06J70J5P5L8J38R6J46K11J48J07J52K19K07J50K24K32K48P8J58K94K92
2871a191J55K02L26Q5K88L52J81J61K50L21K36K52O8K39K40K05K32J77J13K18J95J00K61J64
2895C830J38P2J18J49J72K9N0J45O6O4k7J26p4o3J48q7m8O9qj02r7r4ln6j56j64j89k7j56q7
2925C738j62j96j51j72j70k20j74j60k61j65j04k56j44k42k80j09k32k59r3k65k26q7j98k16
2949h04k44j78j26j28j17k09j44j42k01j02r4Tj14n4j22p5n1j0r4j09J04p2K6k5KL6Q4N1o5
2978c071J24lK9O8J21J05P8L2J38J01J69Q2M7J32J38J61K02J31O7J55R7J43J50J41J29J31J90
3005a3P1J25K02J36N2R6J72J5J42J29R3K1L6J34N5k4J19L1L4kJ07l5J3O7K8l0m2o0m5o8K2q5
3037A496m6m4l8j40n9o4j23m3k7j26j01j47j04r7q4r1j24j04j09Tr6j07j38rr5j36j29q0m7
