##TITLE=QuickScan
##JCAMP-DX=6.00 $$ Magritek SpinSolve SPA102 1.3.23.1837
##DATA TYPE=NMR FID
##DATA CLASS=NTUPLES
##ORIGIN=SPA102 at Magritek, NZ
##OWNER=Copyright (C) 2014 by Magritek, NZ
##LONGDATE=2014/12/11 15:58:21
##.OBSERVE FREQUENCY=43.0763100658963
##.OBSERVE NUCLEUS=^1H
##.DELAY=( 20.0,  20.0)
##.ACQUISITION MODE=SIMULTANEOUS
##.FIELD= 1.0
##.AVERAGES= 0
##.DIGITISER RES=16
##.PULSE SEQUENCE= PULSE ACQUISITION
p=  10.0
rd= 8446
##SPECTROMETER/DATA SYSTEM=Magritek SpinSolve SPA102 1.3.23.1837
##SAMPLE DESCRIPTION=solvent=D2O  
##DATA PROCESSING=Ordinates are scaled between -32767 and +32767.
##NTUPLES=NMR FID
##VAR_NAME=        TIME,            FID/REAL,            FID/IMAG, PAGE NUMBER
##SYMBOL=             X,                   R,                   I,           N
##VAR_TYPE= INDEPENDENT,           DEPENDENT,           DEPENDENT,        PAGE
##VAR_FORM=        AFFN,                ASDF,                ASDF,        AFFN
##VAR_DIM=        16384,               16384,               16384,           2
##UNITS=        SECONDS,     ARBITRARY UNITS,     ARBITRARY UNITS,            
##FIRST=              0,                   0,                   0,           1
##LAST=    3.276799E-09,   -7,38379737238786,   -17,7603112823806,           2
##MIN=                0,   -21016,7485876067,   -31277,3881942125,           1
##MAX=     3.276799E-09,    80648,2961670111,    48496,0099824805,           2
##FACTOR=  1.000030E-13,    2,46126579079596,    1,48002594019838,           1
##PAGE=N=1
##DATA TABLE=(X++(R..R)), XYDATA   $$ Real data points
0@L2767r95j579j106k123k161k388k503k495k428k250k005j690j330r28n17j02K99O60R66
20H092J226J407J492J514J443J297J079P93M67R5k81o67j041j378j665j895k058k141k148
39E631k065j912j689j388j043o56k48J69N85R66J309J614J854K011K106K111K031J896J683
58A4965J405J094P41L78J3l42o60r47j176j339j430j459j408j297j115q81o10l02K1L40O56
79F647R44J182J378J519J583J592J523J392J196R50O58L33j1l56o89j018j296j532j709j838
99A2448j895j875j809j682j483j258r93p14m08j18J63M18O41Q17R50J024J037J003R11P77O04
120H558L92J54q8l38n65p85r71j118j216j273j279j231j127r93q08n98l64j03J39L87O21Q27
142a779R89J116J209J253J229J174J077R28P61N55L36J17j15l22n12o89q17r12r68r79r55q94
164A802p84o62m99l35j55K1J90L44M75N75O43O94TO59N89M97L74K30Q2r1k58m15n50o88p97
189B635q69r13r41r19q84q09p15o01m65l27j80m6R1K04L19L93M55M88M97M83M45L79K98K09
213g73J06Lj13k09l05l84m47m92n26n28n04m78m20l59k73j89r4jQ2J78K37K97L48L64L82L70
239c728L46L11K63J88J21M5k3j07j75k35k97l31l59l77l75l71l51l13k74k26j79j11p1j3L2P3
265f537J01J28J47J49J36J27J05R1M8Nk0n9r6j27j57j80j97k10k09k06k02j84j62j44j14r1o0
292g918l5pJ6L2N3O5O9TP0O1N9M5K4J9jj5l5m5o1o6p4p5q7r0p5p6o7o2o4l8l4k6k2j1kTNJ0N
331h386J2QOQlNloroj7rj8j5j3j5j9j8jj9nj0%kljLjLNJ1MOPJLJ0KjKmjNoMTNRJ9RK5K8L5L7
385h315M3M4N6M5N2N8M7M3M7L7K5TQkrTk4k1l5l0k3k8j8qKJ5K9N4O5Q6R7J08J24J25J34J35
421g018J24J17J07Q5O5M2K2j4k8o1p8r8j11j16Tj14r8q2n9l3MM2P1J18J60J82K19K41K54K71
451e902K67K53K41K13J81J39R7N6Lm3q5j26j46j75j87j82j71j56j23p4k4L8R8J55K16K78L33
478d826L68L92M20M21M07L78L43K83K18J56O7j8r5j68k46l04l46l83m02l96l74l45k89k17j43
503e099o6L1J25K00K90L59M13M59M70M80M58M22L71K95K19J23Rp7j79k74l49m15m60m92m88
528c175m60m25l57k68j62n1Q2K04L38M57N67O59P32P83Q06P99P77P10O34N30M06K75J39%j39
553C861k54l69m61n17n48n63n35m86m02l01j82m9R8K35L73M98O06O98P54P83P79P37O71N81
577F007M49L12J49k6j94l67n26o64p81q69r24r44r42q84q07o90n46l96k22m0J43L09M68O08
601a377P16P93Q42Q49Q22P56O63N37L99K25O1j04k77m30n63o63p36p71p65p24o50n29l81k13
625a520j4J80L85N82P68R32J074J164J241J247J219J159J053R05P27N41L24J01j07l18n06o69
647A0468p91q89r40r43r05q27p26n80m09k26l5J62L38N15O47P60Q35Q63Q60Q10P14N88M26K42
671A0957M0j71l89n92p81r51j080j168j229j237j204j128j013q48o71m58k36rK16M31O30P94
693i7R25J023J071J078J041R60Q43O98N25L26J20p1k70m35n91p07p78q23q11p68o74n47l93
716A645k01jK10M22O23Q04R67J084J169J224J210J167J081R44P93N93L72J59p7k96n07o89q48
739A1848r73j047j092Tj046r57q46o93n31l47j47L3K23L77N10O24O98P26P19O78N90M77L43
762I075J69nj96l84n56p23q58r62j038j068j062j027r42q22o77m97l15j15R4K88M72O32P75
785B58Q84R48R87R75R31Q56P39O01M42K81J10q0k29l87n03n98o72o99o97o59n84m92l68k26p5
810A743Q5K37L88N19O36P09P70P89P82P38O68N67M38K98J45k6j87l38m94o17p14p96q50q64
834D626q61q13p48o54n47m13k80j46mJ22K33L40M12M61M88TM60M08L35K48J42K3r4k14l23m26
860C263n07n72o13o33o27n96n46m66l77k67j59l4Q5K01L05L95M69N26N57N73N51N20M68L81
884B897L08K17J07Qr9j82k71l49l92m30m51m47m24l94l39k71k01j18m0L8J15J81K35K84L05
909B87L16L18K98K60K17J54R2K5o3j28k00k71l19l61l98m12m22m12l87l50l12k56j94j32o6p
935b723N2J11J47J81K08K21K15K07J88J59J20P3L4j9o7j15j50j85k11k30k38k45k25k16j91
960b899j58j20q6m7lL4O7J02J21J35J53TJ52J34J18R9P8M1Qk3n3p6j08j25j47j54j63j62j55
989c084j47j34j19j00p2n6m1qJ4K5L5M9N4N9O1N2M3L9K6Lmk0l8m9o5p0q0q9r0q7q0q2p0o1n5
1024d241m1k7k0mMPJ7L0TL2TK3L0K5J4J2krTj9k8k9l7m3l8l9Tm2l9k9k8k0j3ToLRJ0J5J0K1K9
1066d462RJ1J5O%Mlrj4j3k4k3k0k4k6j1j8j9q%OJ5J4K5K9L2L1M0L5L9L0K6K3K0JMqj4k1k4l2
1107d358l6l9l3k7Tj8rMJ3K5M6M5N9P2P5Q4Q9P8P9O9O6M5M4J2Oj8l2l9n4o2p9p7o9p1o4m7l2
1144d280j1J6K6N5P5R6J07J24J33J39J32J29J27J00Q1O2L3kk6n4q2j03j19j35j41j47j34j24
1172c923j00q1m8j4K6O7R9J41J73J99K23K31K39K38K28K10J77J49J09O0K2j9o7j04j39j58j70
1199b232j88j79j67j46j09o2l1L0Q3J37J84K31K74L01L19L31L33L17K82K45K01J47Q2K2m9j18
1225B38j67k29k73k96l27l25l19l02k66k23j72j01l5L5J03J68K30K73L18L40L51L50L27K92
1249a0K47J81J16M8l3j13j82k50l05l51l79l82l83l63l13k58j94j02j3Q2J75K65L53M31M94
1274a239N32N66N68N61N20M74M06L31K34J32M4n6j52k33k95l47l87l95l91l60l13k48j73q3J9
1299b85J12K09K97L86M45N05N23N36N27M87M32L58K68J65N1o7j80l00l99m88n58o07o43o45
1323A129o15n85n17m39l37k24j03J3J35K37L43M29M82N28N51N37N10M53L80K93J79O9m0j56
1347C252k61l65m30m87n29n40n20m73m09l25k15r5M4J67K90M38N40O32P12P56P87P89P52O98
1371E208O17N18L96K69J34kj33k60l58m60n17n66n72n66n35m67l94k93j82o4N9J75K81L78M55
1396C121N20N50N47N38M98M14L32K23J07l5j65l00m20n37o32p04p53p72p71p40o76n90m88l63
1420a096k36r0M8J84L13M22N13N83O30O43O27N88N27M41L49K32J09j9j39k40l44m24m84n10
1444B627n17m99m54l85k99j96p9N2J84L03M18N19O05O65P00P26P07O73O01N16M18K96J76M0
1468G797j02k15l36m33n13n78o09o23o15n74n11m36l45k45j35k1R0J87K73L52L96M28M39M20
1492D091L90L26K53J65N8n2j60k71l69m57n29n89o17o24o16n81n20m50l50k53j33k1Q6K10L00
1517g13L84M59N07N34N36N27M87M36L63K77J88R2rj02j89k67l21l68l95l98l96l56l07k52j75
1542E42r3oP9J65K44L11L66M11M33M35M28L97L51K88K12J40N0m6j29k17k91l50m09m43m67m72
1568A929m48m31l90l21k65j92j17l5K9J04J65K11K49K73K78K70K50K21J70J15N8j2o4j41k01
1593A705k47k93l24l38l50l37l17k84k40j86j32o4oO3J20J69K14K53K75K91K89K79K66K22J82
1618A210J37R4L5j4p6j18j53j93k18k33k42k36k28k07j71j34j02n7j4J8P2R8J24J44J62J74
1644a28J57J53J40J04Q2L8Ol0o8j11j35j67j91k04k14k19k08j94j75j54j24j01n4l2OL9O1Q8
1672a635R6J21J16J17J09J03Q3O4L9K0ol4n2q4r2j05j26j23j22Tj09j02q5o3m5k9kJ6L1N1O6
1703a904O9P7P5P7TO3N4M4K3J3j0k4m1n7o4q3q5q2r2r1q5p7o8n4m3l4j6lQK2K9L5M6M1M4M2M1
1740b033L3K3J1Nnj3k5l7l4n2n5o1n7n5m8m5m3l3k2j5nKJ2L0J9L5L8L6M0L1L4L1J6J2P%j7j8
1778b258k6l1l8m7m2m1l4m2l3k2k3j2jQJ3K0K4L3L8L6L5L9L0TK3J3Mjj3j8l0k8l7m3m0l3m0l2
1816b619k3j9j0NJ3K8L6M2N3O0O2O1O2O1N3M2L8K6Kkrk6l5m7n1n8n5n1m0m4l5j6kJ6K7M4N8P0
1854b283P9Q8R5R2R5Q8P9N8M7L3Oj0k3m8o3p4q5r7r3r5q3p4n7l7k8%K5M3O8Q9J06J20J22J30
1888a687J28J18J07R1O9M5J8rm1o2q5j10j25j35j36j38j29j13r5o7l5nK8O8R6J33J60J69J96
1917a546K01J98K04J86J63J36J07O8L6mm5o6j03j28j46j54j58j50j35j09q3n4j1L2P1J15J54
1944a221J87K09K33K47K46K39K26K02J69J27P9L8j8o5j12j55j96k23k46k57k53k43k26j92j54
1969a359j09o3rM4R3J45J82K15K34K58TK40K30J95J47J05N8on2j15j69k07k47k58k89k77k69
1996a025k49k09j60j11m7K3Q9J53K12K73L12L51L74L84L79L65L28K92K38J81J16M8j7q0j38
2021B082j91k30k52k68k66k62k29j98j44q3k7L9J04J69K23K68L21L40L51L57L33L06K65K03
2045C211J42P0lq9j63k30k92l46l90m13m21m17l98l58l11k48j85j06k5N5J26J95K53L05L31
2070B93L45L47L33K99K68K02J37P1j0p5j42k18k62l08l39l43l46l19k90k44j65j05k5O0J37
2095f99K25K93L50M12M46M71M75M63M37L97L34K72J95J18L0m6j28j97k56l01l39l46l52l39
2119A915l08k63k11j40p3rP9J43K09K58L00L31L41L39L23K80K37J75J00K8n8j37k17k87l49
2144C006m04m38m56m60m52m22l78l14k48j78q8j1P8J53K19K83L23L55L71L66L50L16K78K25
2168B474J50Q4J9o6j24j86k28k74l02l03l04k88k51k09j50q1k4N7J33J95K60L16L59L77M04
2193B038M03L84L65L13K60K06J31M9j4r0j60k21k74l14l41l57l54l44l11k75k24j64j04m2K1
2218E81P9J37J85K21K46K50K56K41K09J72J23P2Qm8j20j72k30k73l09l32l46l49l33l05k72
2243c09k20j71j10m2J3P9J36J92K24K58K88K85K93K78K51K16J73J31P8J7l2p7j20j66j96k11
2269A258k21Tk11j96j66j29q7m2MN0J00J34J76J97K24K32K27K24J98J81J40J02N5Ol8q7j33
2296A977j69k01k36k42k51k55k46k23j98j65j31r0m6lL0P3J00J25J44J52J53J42J34J18R0N8
2322H40K9j3m8p6j07j36j52j69j82j77j71j66j48j16q9o9k3OM2O2R3J21J34J52J53J51J49J33
2350B23J17R5O8L9J6j4m2o6r2j05j27j22j37j33j23j17r5p4o4l0j5QL9N0P2P8Q8R5Q9Q7P3O0
2382e9M9K6Rj8l9n7p8q5j03j17j13j17j16j12j00q3p0n1k9j5JL2M0L6O8P5P2P1O8O7N7M5L2J7
2416e97Lj1k6m1n2o1o5p4p9o9o8o4n6m3k4k0j2J0J8L3M5TN2N8N1N3TL8L5K2PJj2k2l8l6n6o2
2454a064n8o2o1n9n4m9l6k7j7pNJ4K2L5L3M3M7M5M4M0L4K6K4J0lmk1k6l2l6m0m8m9m3l8l7l0
2491a479k0j4%PQK1L3L6L9M1M5M4L5L6K4K2J0Joj5k6l2m1m3m4m6m8m2l5k7k5j7JLJ1K3L0L6
2529a454M3TN0M2L8L3L4J7J2Mj1k0k6l4m5m7m3m6Tl5l3k3pmQK3L7M4N3O5O3O7O8TN8O3M8K6K0
2568h47RJj7k8m1l8n3Tn2m9l8Tk7j1MJ2K9M1O1O9TQ2P7Q2P7P1N7M9L4J2%j8l6n5o5p3p7q9r0
2607i59q3p6o5n0l8j9KJ7L3O0O8Q9R5TJ01R6Q1P7O4M2K2Lj9m0o2p4r2r8j01j03j02r1o6n8m4l
2643a298PL4P3R0J07J23J38J43J51J46J35J29J12Q5O6L9J3j7m2o2p8r6j06j12j05j04q2p3m7
2672f31k2OL1O0Q4J11J32J43J56J63J57J49J34J22Q9N8L0mm1o6r7j32j51j56j74j84j73j56
2700c62j44j16q5n9k5RN1Q0J03J36J47J61J57J60J56J27J08Q3M5Pj7n9r2j24j37j56j72Tj65
2729c55j53j38j03p7l9NL8Q3J21J55J87K00K24K38K28K21K08J87J56J14Q5L7Ol7p2j06j27j52
2757A134j71j61j65j52j28j11p4l7MM5O8J22J44J70J92K02K00J97J81J58J38Q5M4J1m0q6j27
2784A843j64k00k23k36k53k48k31k21j89j56j22p2k5J7O3J04J41J61J88J96K06J95J81J57J28
2809A240R6N3Rk9o5j03j30j64j86j90j85j83j64j38j16o6k8J3O1J03J48J79K13K40K51K61K57
2836A377K48K21J90J64J21P4K4j3n9j05j35j71j87k07j98j99j88j68j35j02o0k5J2O1R2J27
2862G59J57J72J80J83J81J58J33J05P2K4j5n7j08j41j78k12k29k39k48k44k30k10j78j42j07
2887d14n8j8K2P3J07J35J67J90J94K00J99J82J57J32J03O4L0j1m7q4j00j37j55j56j61j56j42
